fre(GHz)	A1(dB)
12.0	-11.56388429069194
12.012024048096194	-11.59946698631282
12.024048096192384	-11.634716894332605
12.036072144288578	-11.669607784261686
12.048096192384769	-11.704112979248748
12.060120240480963	-11.738205395319277
12.072144288577155	-11.771857584172022
12.084168336673347	-11.805041779574584
12.09619238476954	-11.837729947378966
12.108216432865731	-11.86989383915411
12.120240480961924	-11.901505049407797
12.132264529058117	-11.932535076342427
12.144288577154308	-11.962955386060806
12.156312625250502	-11.992737480106213
12.168336673346692	-12.0218529661902
12.180360721442886	-12.050273631926448
12.192384769539078	-12.077971521356154
12.20440881763527	-12.104919014014277
12.216432865731463	-12.131088906251822
12.228456913827657	-12.156454494493993
12.240480961923847	-12.180989660080378
12.252505010020041	-12.20466895530053
12.264529058116231	-12.227467690207327
12.276553106212425	-12.249362019762184
12.288577154308618	-12.270329030840212
12.30060120240481	-12.290346828601406
12.312625250501002	-12.309394621715587
12.324649298597194	-12.327452805914822
12.336673346693386	-12.344503045338302
12.34869739478958	-12.36052835113069
12.36072144288577	-12.375513156756885
12.372745490981965	-12.389443389503938
12.384769539078155	-12.402306537654313
12.396793587174349	-12.414091712834573
12.408817635270541	-12.424789707069282
12.420841683366733	-12.434393044101322
12.432865731462925	-12.44289602457727
12.444889779559118	-12.450294764738665
12.45691382765531	-12.456587228307349
12.468937875751504	-12.461773251304395
12.480961923847696	-12.465854559597231
12.492985971943888	-12.468834779027313
12.50501002004008	-12.470719438030727
12.517034068136272	-12.471515962725386
12.529058116232466	-12.47123366449973
12.541082164328657	-12.4698837201997
12.55310621242485	-12.467479145069833
12.565130260521041	-12.464034758662763
12.577154308617235	-12.459567143985925
12.589178356713427	-12.454094600205725
12.60120240480962	-12.447637089276336
12.613226452905812	-12.440216176902679
12.625250501002004	-12.431854968283986
12.637274549098196	-12.422578039115685
12.64929859719439	-12.412411362353065
12.66132264529058	-12.401382231259213
12.673346693386774	-12.389519179273432
12.685370741482965	-12.376851897243714
12.697394789579159	-12.363411148568126
12.70941883767535	-12.349228682786276
12.721442885771543	-12.334337148152429
12.733466933867735	-12.3187700037078
12.745490981963929	-12.302561431350762
12.75751503006012	-12.28574624838137
12.769539078156313	-12.26835982097028
12.781563126252504	-12.250437978973531
12.793587174348698	-12.232016932483203
12.80561122244489	-12.21313319047102
12.817635270541082	-12.193823481847708
12.829659318637274	-12.174124679225628
12.841683366733466	-12.154073725636977
12.853707414829659	-12.133707564424688
12.865731462925853	-12.113063072488035
12.877755511022043	-12.092176997031824
12.889779559118237	-12.07108589593481
12.901803607214427	-12.04982608182225
12.913827655310621	-12.028433569898029
12.925851703406815	-12.006944029564192
12.937875751503006	-11.985392739830251
12.9498997995992	-11.963814548491108
12.96192384769539	-11.942243835031325
12.973947895791584	-11.920714477194231
12.985971943887776	-11.899259821137454
12.997995991983968	-11.87791265508148
13.01002004008016	-11.856705186345646
13.022044088176353	-11.835669021654326
13.034068136272545	-11.81483515058805
13.046092184368739	-11.794233932046668
13.05811623246493	-11.773895083586494
13.070140280561123	-11.753847673489355
13.082164328657313	-11.734120115419147
13.094188376753507	-11.714740165520341
13.1062124248497	-11.695734921812672
13.118236472945892	-11.677130825737578
13.130260521042084	-11.658953665713778
13.142284569138278	-11.641228582562153
13.154308617234468	-11.623980076663473
13.166332665330662	-11.607232016716804
13.178356713426853	-11.591007649970669
13.190380761523047	-11.575329613804154
13.202404809619237	-11.560219948540333
13.214428857715431	-11.545700111379876
13.226452905811623	-11.531790991348354
13.238476953907815	-11.518512925156582
13.250501002004007	-11.505885713879033
13.262525050100201	-11.493928640361368
13.274549098196392	-11.482660487273726
13.286573146292586	-11.4720995557324
13.298597194388776	-11.462263684417817
13.31062124248497	-11.45317026912263
13.322645290581162	-11.444836282668799
13.334669338677354	-11.43727829513792
13.346693386773547	-11.430512494363951
13.358717434869739	-11.424554706642514
13.370741482965931	-11.419420417615424
13.382765531062125	-11.415124793293732
13.394789579158317	-11.411682701186727
13.40681362725451	-11.409108731508494
13.418837675350701	-11.407417218437573
13.430861723446894	-11.406622261408765
13.442885771543088	-11.406737746420054
13.454909819639278	-11.407777367340554
13.466933867735472	-11.409754647208953
13.478957915831662	-11.41268295951468
13.490981963927856	-11.416575549457246
13.503006012024048	-11.421445555181613
13.51503006012024	-11.427306028990502
13.527054108216433	-11.434169958536646
13.539078156312625	-11.442050288000846
13.551102204408817	-11.450959939263655
13.563126252505011	-11.460911833081102
13.575150300601202	-11.471918910276672
13.587174348697395	-11.483994152964328
13.599198396793586	-11.497150605819053
13.61122244488978	-11.511401397413646
13.623246492985972	-11.526759761642424
13.635270541082164	-11.543239059254613
13.647294589178356	-11.560852799522083
13.65931863727455	-11.579614662068114
13.67134268537074	-11.599538518886106
13.683366733466935	-11.620638456579012
13.695390781563125	-11.64292879885241
13.707414829659319	-11.666424129296708
13.719438877755511	-11.691139314495597
13.731462925851703	-11.71708952750099
13.743486973947896	-11.7442902717165
13.755511022044088	-11.772757405234719
13.76753507014028	-11.802507165675793
13.779559118236474	-11.833556195578133
13.791583166332664	-11.865921568395004
13.803607214428858	-11.899620815154039
13.815631262525049	-11.934671951840299
13.827655310621243	-11.971093507567442
13.839679358717435	-12.008904553605333
13.851703406813627	-12.048124733336929
13.86372745490982	-12.088774293222235
13.875751503006011	-12.130874114851704
13.887775551102205	-12.17444574817738
13.899799599198397	-12.219511446015783
13.91182364729459	-12.266094199922907
13.923847695390782	-12.314217777549015
13.935871743486974	-12.36390676158784
13.947895791583166	-12.415186590443614
13.95991983967936	-12.468083600747802
13.97194388777555	-12.522625071867338
13.983967935871744	-12.578839272556552
13.995991983967935	-12.636755509916442
14.008016032064129	-12.696404180837597
14.02004008016032	-12.757816826116443
14.032064128256513	-12.821026187449608
14.044088176352705	-12.886066267527339
14.0561122244489	-12.952972393464577
14.06813627254509	-13.021781283827922
14.080160320641284	-13.092531119537883
14.092184368737474	-13.165261618949021
14.104208416833668	-13.240014117436303
14.116232464929858	-13.316831651843888
14.128256513026052	-13.395759050183322
14.140280561122244	-13.476843027001642
14.152304609218437	-13.560132284877948
14.164328657314629	-13.645677622545957
14.176352705410823	-13.733532050187359
14.188376753507013	-13.82375091248744
14.200400801603207	-13.916392020102105
14.212424849699397	-14.011515790241853
14.224448897795591	-14.109185397147284
14.236472945891784	-14.209466933302128
14.248496993987976	-14.31242958231036
14.260521042084168	-14.418145804452953
14.27254509018036	-14.526691536037227
14.284569138276552	-14.63814640375995
14.296593186372746	-14.752593955424162
14.308617234468938	-14.87012190848046
14.32064128256513	-14.990822418007879
14.332665330661323	-15.114792365908604
14.344689378757515	-15.242133673263377
14.356713426853709	-15.372953637987552
14.3687374749499	-15.507365300133394
14.380761523046093	-15.645487837413135
14.392785571142284	-15.787446993762074
14.404809619238478	-15.933375544026012
14.41683366733467	-16.083413798138366
14.428857715430862	-16.237710148453388
14.440881763527054	-16.39642166420954
14.452905811623246	-16.559714737415206
14.464929859719438	-16.727765784761356
14.476953907815632	-16.90076201045846
14.488977955911823	-17.07890223515076
14.501002004008017	-17.262397796242333
14.513026052104207	-17.451473525037002
14.525050100200401	-17.646368805980575
14.537074148296593	-17.847338722912983
14.549098196392785	-18.05465529645803
14.561122244488978	-18.26860881532593
14.573146292585172	-18.489509262124404
14.585170340681362	-18.71768783091563
14.597194388777556	-18.953498528720655
14.609218436873746	-19.197319845760056
14.62124248496994	-19.449556468436576
14.633266533066132	-19.710640993512182
14.645290581162325	-19.981035579610495
14.657314629258517	-20.26123344026073
14.669338677354709	-20.5517600371366
14.681362725450901	-20.853173767155386
14.693386773547095	-21.166065844400485
14.705410821643286	-21.491058945530593
14.71743486973948	-21.82880399840225
14.72945891783567	-22.179974223684923
14.741482965931864	-22.545255153590645
14.753507014028056	-22.92532880155782
14.765531062124248	-23.320849374016582
14.777555110220442	-23.732406808891007
14.789579158316633	-24.160472878458577
14.801603206412826	-24.60532247148504
14.813627254509019	-25.066919848982693
14.82565130260521	-25.5447561273246
14.837675350701403	-26.03762026527654
14.849699398797595	-26.543282444247605
14.861723446893787	-27.05806854175011
14.873747494989981	-27.576312994186438
14.885771543086172	-28.089705065723713
14.897795591182366	-28.58660612843171
14.909819639278556	-29.05152897125939
14.92184368737475	-29.465130098763375
14.933867735470942	-29.805204529549552
14.945891783567134	-30.04911546547735
14.957915831663327	-30.17761426624199
14.96993987975952	-30.17910937347537
14.98196392785571	-30.052675092615438
14.993987975951905	-29.808306447555196
15.006012024048095	-29.464284361818272
15.01803607214429	-29.042985981620944
15.03006012024048	-28.566900051967323
15.042084168336673	-28.055946330154363
15.054108216432866	-27.52626871449161
15.066132264529058	-26.99011429090163
15.07815631262525	-26.456298567651245
15.090180360721444	-25.930878545288355
15.102204408817634	-25.417818840613208
15.114228456913828	-24.919558458735036
15.126252505010019	-24.43745580664786
15.138276553106213	-23.972121776941485
15.150300601202405	-23.52366160246284
15.162324649298597	-23.091846945870905
15.17434869739479	-22.67623658719963
15.186372745490981	-22.276260092574383
15.198396793587174	-21.891275202877395
15.210420841683367	-21.520606739363632
15.222444889779558	-21.163572593361806
15.234468937875752	-20.81950073530194
15.246492985971944	-20.487740008296672
15.258517034068136	-20.16766664266698
15.27054108216433	-19.85868784465134
15.28256513026052	-19.56024340369073
15.294589178356714	-19.271805976479943
15.306613226452905	-18.992880505662292
15.318637274549099	-18.723003090794016
15.330661322645291	-18.46173953094747
15.342685370741483	-18.20868368943381
15.354709418837675	-17.96345578283643
15.366733466933868	-17.725700662706238
15.37875751503006	-17.495086134601173
15.390781563126254	-17.27130134264115
15.402805611222444	-17.054055236296918
15.414829659318638	-16.843075128241274
15.426853707414828	-16.638105346719094
15.438877755511022	-16.438905982300888
15.450901803607215	-16.2452517265362
15.462925851703407	-16.056930798555115
15.474949899799599	-15.873743954807278
15.486973947895793	-15.695503576688758
15.498997995991983	-15.522032830659416
15.511022044088177	-15.35316489549321
15.523046092184368	-15.188742251472306
15.535070140280562	-15.028616026579432
15.547094188376754	-14.872645395033281
15.559118236472946	-14.72069702382065
15.571142284569138	-14.572644563196121
15.58316633266533	-14.428368177432713
15.595190380761522	-14.287754112405551
15.607214428857716	-14.150694296877827
15.619238476953907	-14.01708597462484
15.6312625250501	-13.886831364779857
15.643286573146291	-13.759837348017854
15.655310621242485	-13.636015176401152
15.667334669338677	-13.515280204907665
15.67935871743487	-13.397551642837014
15.691382765531062	-13.282752323452186
15.703406813627254	-13.170808490360056
15.715430861723448	-13.061649599268177
15.72745490981964	-12.955208133874978
15.739478957915832	-12.851419434761644
15.751503006012024	-12.750221540251985
15.763527054108216	-12.651555038297769
15.775551102204409	-12.555362928528712
15.787575150300603	-12.461590493679937
15.799599198396793	-12.370185179678039
15.811623246492987	-12.281096483726726
15.823647294589177	-12.194275849790081
15.835671342685371	-12.109676570920044
15.847695390781563	-12.027253697922234
15.859719438877756	-11.946963953894784
15.871743486973948	-11.868765654213036
15.883767535070142	-11.792618631567851
15.895791583166332	-11.71848416569619
15.907815631262526	-11.646324917471407
15.919839679358716	-11.576104867047514
15.93186372745491	-11.507789255774494
15.9438877755511	-11.441344531624493
15.955911823647295	-11.37673829788828
15.967935871743487	-11.313939264919687
15.97995991983968	-11.252917204722326
15.991983967935871	-11.19364290818905
16.004008016032063	-11.136088144817176
16.016032064128257	-11.080225624736993
16.028056112224448	-11.026028962901954
16.04008016032064	-10.973472645300193
16.052104208416832	-10.922531997057064
16.064128256513026	-10.873183152307526
16.07615230460922	-10.82540302572568
16.08817635270541	-10.779169285606933
16.100200400801604	-10.734460328404916
16.112224448897795	-10.691255254632521
16.12424849699399	-10.64953384604226
16.13627254509018	-10.609276544006779
16.148296593186373	-10.57046442902599
16.160320641282567	-10.533079201291677
16.172344689378757	-10.497103162245292
16.18436873747495	-10.462519197068472
16.196392785571142	-10.429310758050187
16.208416833667336	-10.39746184877712
16.220440881763526	-10.36695700909824
16.23246492985972	-10.337781300816538
16.24448897795591	-10.309920294064629
16.256513026052104	-10.283360054322689
16.268537074148295	-10.258087130040352
16.28056112224449	-10.234088540825814
16.292585170340683	-10.211351766167985
16.304609218436873	-10.189864734658851
16.316633266533067	-10.169615813685521
16.328657314629258	-10.150593799562666
16.34068136272545	-10.132787908077637
16.352705410821645	-10.116187765422016
16.364729458917836	-10.100783399484367
16.37675350701403	-10.0865652314804
16.38877755511022	-10.073524067897308
16.400801603206414	-10.061651092730635
16.412825651302605	-10.050937859992102
16.4248496993988	-10.041376286468237
16.43687374749499	-10.032958644709716
16.448897795591183	-10.025677556232516
16.460921843687373	-10.01952598491173
16.472945891783567	-10.014497230550045
16.484969939879758	-10.010584922602598
16.49699398797595	-10.007783014040543
16.509018036072142	-10.006085775335702
16.521042084168336	-10.005487788548791
16.53306613226453	-10.005983941503644
16.54509018036072	-10.007569422030029
16.557114228456914	-10.01023971225721
16.569138276553105	-10.013990582940508
16.5811623246493	-10.01881808780257
16.593186372745492	-10.024718557870822
16.605210420841683	-10.031688595792193
16.617234468937877	-10.039725070105472
16.62925851703407	-10.048825109451151
16.64128256513026	-10.05898609669795
16.653306613226455	-10.070205662964327
16.665330661322646	-10.08248168151232
16.67735470941884	-10.095812261490272
16.68937875751503	-10.110195741499515
16.701402805611224	-10.12563068295937
16.713426853707414	-10.142115863242818
16.725450901803608	-10.159650268554428
16.7374749498998	-10.178233086519912
16.749498997995993	-10.197863698455267
16.761523046092183	-10.21854167128154
16.773547094188377	-10.240266749049056
16.785571142284567	-10.263038844032833
16.79759519038076	-10.28685802735853
16.809619238476955	-10.31172451911564
16.821643286573146	-10.337638677911825
16.83366733466934	-10.364600989819477
16.84569138276553	-10.392612056662081
16.857715430861724	-10.421672583584968
16.869739478957918	-10.451783365850895
16.881763527054108	-10.482945274797137
16.893787575150302	-10.515159242886917
16.905811623246493	-10.548426247782762
16.917835671342687	-10.58274729536536
16.929859719438877	-10.618123401615897
16.94188376753507	-10.654555573274653
16.95390781563126	-10.692044787182821
16.965931863727455	-10.730591968208556
16.977955911823646	-10.770197965651366
16.98997995991984	-10.810863528012995
17.00200400801603	-10.852589276014882
17.014028056112224	-10.895375673735241
17.026052104208414	-10.939222997730802
17.03807615230461	-10.98413130400007
17.050100200400802	-11.030100392636273
17.062124248496993	-11.077129770008929
17.074148296593187	-11.125218608304523
17.08617234468938	-11.174365702246629
17.09819639278557	-11.22456942280612
17.110220440881765	-11.275827667702817
17.122244488977955	-11.328137808489686
17.13426853707415	-11.381496634000461
17.146292585170343	-11.435900289932926
17.158316633266534	-11.4913442143297
17.170340681362728	-11.547823068710144
17.182364729458918	-11.605330664598743
17.194388777555112	-11.663859885188046
17.206412825651302	-11.72340260186874
17.218436873747493	-11.78394958535501
17.23046092184369	-11.84549041113126
17.24248496993988	-11.908013358946848
17.25450901803607	-11.971505306089387
17.266533066132265	-12.035951614173864
17.27855711422846	-12.101336009197485
17.29058116232465	-12.167640454626907
17.30260521042084	-12.234845017308979
17.314629258517034	-12.302927726025885
17.326653306613228	-12.371864422556493
17.338677354709418	-12.441628605154493
17.350701402805612	-12.512191264415264
17.362725450901802	-12.583520711576808
17.374749498997996	-12.655582399389594
17.38677354709419	-12.728338735794027
17.39879759519038	-12.801748890769296
17.41082164328657	-12.875768596859887
17.422845691382765	-12.950349944053572
17.43486973947896	-13.025441169874888
17.44689378757515	-13.10098644577597
17.45891783567134	-13.176925661150634
17.470941883767537	-13.253194206573022
17.482965931863728	-13.329722758166387
17.494989979959918	-13.406437065342725
17.507014028056112	-13.483257744518841
17.519038076152306	-13.560100081807986
17.531062124248496	-13.636873848104505
17.543086172344687	-13.713483130418675
17.555110220440884	-13.789826183771954
17.567134268537075	-13.865795308422225
17.579158316633265	-13.94127675764236
17.59118236472946	-14.016150681708403
17.603206412825653	-14.09029111415119
17.615230460921843	-14.163566006664745
17.627254509018037	-14.235837319325244
17.639278557114228	-14.306961172926044
17.65130260521042	-14.376788070253992
17.663326653306616	-14.445163192982823
17.675350701402806	-14.511926780515502
17.687374749498996	-14.576914596533214
17.69939879759519	-14.63995848817952
17.711422845691384	-14.700887041697872
17.723446893787575	-14.759526336932318
17.735470941883765	-14.815700801387177
17.747494989979963	-14.869234162526684
17.759519038076153	-14.919950494698526
17.771543086172343	-14.967675354523182
17.783567134268537	-15.012236995857613
17.79559118236473	-15.053467652594513
17.80761523046092	-15.091204874686952
17.819639278557112	-15.12529290000642
17.831663326653306	-15.155584042070831
17.8436873747495	-15.181940071451152
17.85571142284569	-15.204233566911878
17.867735470941884	-15.222349211186554
17.879759519038075	-15.23618500584395
17.89178356713427	-15.245653380046269
17.903807615230463	-15.2506821691889
17.915831663326653	-15.251215441450608
17.927855711422843	-15.24721415314266
17.93987975951904	-15.238656617343729
17.95190380761523	-15.225538774526132
17.96392785571142	-15.207874258556524
17.975951903807612	-15.185694256406002
17.98797595190381	-15.15904716492523
18.0	-15.127998052922516
