fre(GHz)	A1(dB)
2.0	-0.24142517777848746
2.020040080160321	-0.2416195524686951
2.0400801603206413	-0.2418160910516516
2.060120240480962	-0.24201481507976014
2.0801603206412826	-0.24221574605091212
2.1002004008016035	-0.2424189054293359
2.120240480961924	-0.2426243146654344
2.1402805611222444	-0.2428319952146463
2.1603206412825653	-0.2430419685554575
2.1803607214428857	-0.24325425620659985
2.2004008016032066	-0.24346887974351333
2.220440881763527	-0.24368586081414095
2.2404809619238475	-0.24390522115409569
2.2605210420841684	-0.24412698260126287
2.2805611222444893	-0.24435116710990565
2.3006012024048093	-0.24457779676425387
2.32064128256513	-0.24480689379170872
2.340681362725451	-0.24503848057561928
2.360721442885772	-0.24527257966772284
2.380761523046092	-0.2455092138002524
2.400801603206413	-0.24574840589775881
2.4208416833667337	-0.24599017908866055
2.440881763527054	-0.24623455671657798
2.4609218436873745	-0.24648156235143337
2.4809619238476954	-0.24673121980039675
2.5010020040080163	-0.2469835531186421
2.5210420841683367	-0.24723858661997866
2.541082164328657	-0.2474963448873687
2.561122244488978	-0.2477568527833332
2.5811623246492985	-0.24802013546027182
2.6012024048096194	-0.24828621837075068
2.62124248496994	-0.248555127277703
2.6412825651302603	-0.2488268882646233
2.661322645290581	-0.2491015277457393
2.681362725450902	-0.24937907247618718
2.7014028056112225	-0.24965954956219064
2.721442885771543	-0.24994298647127347
2.741482965931864	-0.25022941104251306
2.7615230460921847	-0.2505188514968461
2.7815631262525047	-0.2508113364474312
2.8016032064128256	-0.2511068949101078
2.8216432865731464	-0.25140555631391975
2.841683366733467	-0.2517073505117628
2.8617234468937873	-0.25201230779112194
2.881763527054108	-0.25232045888496213
2.901803607214429	-0.25263183498271996
2.9218436873747495	-0.25294646774146273
2.94188376753507	-0.25326438929720024
2.961923847695391	-0.2535856322763633
2.9819639278557113	-0.25391022980744965
3.002004008016032	-0.25423821553288656
3.0220440881763526	-0.2545696236210583
3.042084168336673	-0.25490448877856664
3.062124248496994	-0.2552428462627191
3.082164328657315	-0.2555847318942273
3.1022044088176353	-0.2559301820701632
3.1222444889779557	-0.2562792337771793
3.1422845691382766	-0.25663192460497203
3.1623246492985975	-0.2569882927600498
3.1823647294589175	-0.25734837707976643
3.2024048096192383	-0.25771221704668085
3.2224448897795592	-0.2580798528032133
3.24248496993988	-0.2584513251666437
3.2625250501002	-0.25882667564442663
3.282565130260521	-0.2592059464498937
3.302605210420842	-0.2595891805182855
3.3226452905811623	-0.259976421523196
3.3426853707414828	-0.2603677138933951
3.3627254509018036	-0.26076310283004855
3.382765531062124	-0.26116263432440145
3.402805611222445	-0.2615663551758455
3.4228456913827654	-0.26197431301050056
3.442885771543086	-0.2623865563002165
3.4629258517034067	-0.26280313438209957
3.4829659318637276	-0.2632240974785204
3.5030060120240485	-0.26364949671766696
3.5230460921843685	-0.26407938415461396
3.5430861723446894	-0.26451381279298475
3.5631262525050102	-0.2649528366071605
3.5831663326653307	-0.26539651056513236
3.603206412825651	-0.2658448906519199
3.623246492985972	-0.266298033893695
3.643286573146293	-0.2667559983825343
3.6633266533066133	-0.267218843301872
3.6833667334669338	-0.26768662895267265
3.7034068136272547	-0.26815941678034083
3.723446893787575	-0.26863726940240495
3.743486973947896	-0.26912025063698125
3.7635270541082164	-0.2696084255320762
3.783567134268537	-0.2701018603957329
3.8036072144288577	-0.2706006228270627
3.8236472945891786	-0.2711047817481907
3.843687374749499	-0.2716144074371475
3.8637274549098195	-0.2721295715617498
3.8837675350701404	-0.27265034721448717
3.9038076152304613	-0.2731768089484762
3.9238476953907813	-0.27370903281450665
3.943887775551102	-0.2742470963992064
3.963927855711423	-0.274791078864403
3.9839679358717435	-0.27534106098768657
4.004008016032064	-0.2758971252042644
4.024048096192384	-0.27645935565008706
4.044088176352705	-0.2770278382063798
4.064128256513026	-0.2776026605455544
4.084168336673346	-0.27818391217860183
4.104208416833667	-0.27877168450402506
4.124248496993988	-0.2793660708583019
4.144288577154309	-0.2799671665680575
4.164328657314629	-0.28057506900389595
4.18436873747495	-0.28118987763601794
4.2044088176352705	-0.28181169409168033
4.224448897795591	-0.2824406222145769
4.244488977955911	-0.2830767681262087
4.264529058116232	-0.28372024028931386
4.284569138276553	-0.2843711495734572
4.304609218436873	-0.2850296093228664
4.324649298597195	-0.28569573542658966
4.344689378757515	-0.2863696463910819
4.364729458917835	-0.2870514634153154
4.384769539078157	-0.28774131046851653
4.404809619238477	-0.28843931437064807
4.424849699398798	-0.28914560487573465
4.4448897795591185	-0.2898603147581641
4.4649298597194385	-0.2905835799020828
4.48496993987976	-0.2913155393940336
4.50501002004008	-0.29205633561892275
4.5250501002004	-0.2928061143595477
4.545090180360722	-0.29356502489974173
4.565130260521042	-0.29433322013137375
4.585170340681363	-0.2951108566653097
4.605210420841684	-0.29589809494656544
4.625250501002004	-0.2966950993737767
4.645290581162325	-0.2975020384232435
4.6653306613226455	-0.29831908477769814
4.6853707414829655	-0.2991464154600433
4.705410821643286	-0.2999842119722717
4.725450901803607	-0.3008326604398155
4.745490981963928	-0.30169195176156316
4.765531062124248	-0.3025622817658077
4.785571142284569	-0.30344385137242036
4.80561122244489	-0.3043368667615129
4.82565130260521	-0.30524153954893024
4.845691382765531	-0.30615808696885727
4.865731462925852	-0.3070867320639138
4.885771543086172	-0.30802770388309575
4.9058116232464934	-0.3089812376879157
4.925851703406813	-0.30994757516718763
4.945891783567134	-0.31092696466084224
4.965931863727455	-0.31191966139322136
4.985971943887775	-0.3129259277163816
5.006012024048097	-0.3139460333638255
5.026052104208417	-0.3149802557152637
5.046092184368737	-0.3160288800729061
5.066132264529059	-0.31709219994993687
5.086172344689379	-0.3181705173717542
5.106212424849699	-0.3192641431906689
5.1262525050100205	-0.32037339741475124
5.1462925851703405	-0.3214986095515843
5.166332665330661	-0.32264011896773115
5.186372745490982	-0.32379827526471683
5.206412825651302	-0.3249734386724717
5.226452905811623	-0.3261659804611405
5.246492985971944	-0.32737628337231267
5.266533066132264	-0.32860474207070456
5.286573146292586	-0.3298517636174614
5.306613226452906	-0.33111776796628195
5.326653306613227	-0.3324031884836748
5.3466933867735476	-0.33370847249469565
5.3667334669338675	-0.33503408185566524
5.386773547094188	-0.33638049355541655
5.406813627254509	-0.33774820034671593
5.426853707414829	-0.3391377114097013
5.44689378757515	-0.34054955304917306
5.466933867735471	-0.3419842694277877
5.486973947895792	-0.3434424233373673
5.507014028056112	-0.3449245970105663
5.527054108216433	-0.3464313929754418
5.547094188376754	-0.3479634349555689
5.567134268537074	-0.3495213688185098
5.587174348697395	-0.35110586357575857
5.6072144288577155	-0.352717612437348
5.6272545090180355	-0.35435733392469054
5.647294589178357	-0.35602577304539507
5.667334669338677	-0.3577237025340891
5.687374749498998	-0.3594519241636198
5.707414829659319	-0.3612112701312931
5.727454909819639	-0.363002604525191
5.74749498997996	-0.36482682487595314
5.767535070140281	-0.36668486379991627
5.787575150300601	-0.36857769073983615
5.8076152304609225	-0.3705063138100313
5.8276553106212425	-0.3724717817532494
5.8476953907815625	-0.37447518601718255
5.867735470941884	-0.37651766295918
5.887775551102204	-0.3786003961884485
5.907815631262524	-0.3807246190557068
5.927855711422846	-0.38289161730122145
5.947895791583166	-0.38510273187294086
5.967935871743487	-0.3873593619275467
5.987975951903808	-0.3896629680282765
6.008016032064128	-0.39201507555459114
6.02805611222445	-0.39441727834009443
6.04809619238477	-0.3968712425565607
6.06813627254509	-0.39937871086350163
6.088176352705411	-0.4019415068444764
6.108216432865731	-0.40456153975329234
6.128256513026052	-0.4072408095953527
6.148296593186373	-0.40998141257179627
6.168336673346693	-0.4127855469166186
6.188376753507014	-0.41565551915993604
6.208416833667335	-0.41859375085361705
6.228456913827655	-0.4216027857991502
6.248496993987976	-0.4246852978214797
6.268537074148297	-0.4278440991368648
6.2885771543086175	-0.43108214936773737
6.3086172344689375	-0.4344025652628155
6.328657314629258	-0.43780863118682484
6.348697394789579	-0.44130381045082884
6.368737474949899	-0.44489175756160904
6.388777555110221	-0.44857633147702003
6.408817635270541	-0.4523616099634711
6.428857715430861	-0.4562519051622923
6.448897795591183	-0.46025178048349275
6.468937875751503	-0.46436606895868937
6.488977955911824	-0.4685998931999089
6.509018036072145	-0.4729586871277925
6.529058116232465	-0.47744821965175815
6.549098196392786	-0.4820746205060896
6.569138276553106	-0.48684440847035876
6.589178356713426	-0.49176452223004347
6.609218436873748	-0.4968423541646353
6.629258517034068	-0.5020857873861396
6.649298597194388	-0.5075032363914718
6.66933867735471	-0.5131036917386316
6.68937875751503	-0.518896769209568
6.709418837675351	-0.5248927639833043
6.729458917835672	-0.5311027104125885
6.749498997995992	-0.5375384480774646
6.7695390781563125	-0.5442126948812583
6.789579158316633	-0.5511391280610861
6.809619238476953	-0.5583324741078531
6.829659318637275	-0.5658086087335082
6.849699398797595	-0.5735846681886223
6.869739478957916	-0.581679173426174
6.889779559118237	-0.5901121688318625
6.909819639278557	-0.598905377503806
6.929859719438878	-0.6080823753719581
6.949899799599199	-0.6176687868085448
6.969939879759519	-0.627692504805813
6.98997995991984	-0.6381839392988126
7.01002004008016	-0.6491762978041137
7.030060120240481	-0.6607059032491058
7.050100200400801	-0.6728125547034352
7.070140280561122	-0.6855399377223965
7.090180360721443	-0.698936092206185
7.110220440881763	-0.713053947111414
7.130260521042084	-0.727951933075029
7.150300601202405	-0.7436946860914195
7.170340681362725	-0.7603538579029632
7.190380761523047	-0.7780090518251594
7.210420841683367	-0.7967489064585096
7.2304609218436875	-0.8166723543031297
7.250501002004008	-0.8378900878941025
7.270541082164328	-0.8605262729770191
7.290581162324649	-0.8847205567770933
7.31062124248497	-0.910630430007539
7.33066132264529	-0.9384340144614154
7.350701402805612	-0.9683333645416135
7.370741482965932	-1.000558391820537
7.390781563126252	-1.0353715478718652
7.410821643286574	-1.0730734337311922
7.430861723446894	-1.1140095464484796
7.450901803607214	-1.1585784269568278
7.470941883767535	-1.207241542409519
7.490981963927855	-1.2605353248693594
7.511022044088176	-1.3190859029153152
7.531062124248497	-1.3836272115171364
7.551102204408817	-1.455023359253248
7.571142284569139	-1.534296385007642
7.591182364729459	-1.6226608677781276
7.611222444889779	-1.7215672884214017
7.631262525050101	-1.8327566142425202
7.651302605210421	-1.9583293294653221
7.671342685370742	-2.1008331219179253
7.6913827655310625	-2.263374727007475
7.7114228456913825	-2.4497631041111796
7.731462925851703	-2.6646932603224833
7.751503006012024	-2.9139826989755617
7.771543086172345	-3.2048756098726026
7.791583166332665	-3.546433180177498
7.811623246492986	-3.950030563787916
7.831663326653307	-4.429978414508887
7.851703406813627	-5.004268613899358
7.871743486973948	-5.69537739182401
7.891783567134269	-6.5308436439183915
7.911823647294589	-7.542652002471602
7.93186372745491	-8.76222570749609
7.95190380761523	-10.200711008805413
7.97194388777555	-11.78433438812904
7.991983967935872	-13.1933642412025
8.012024048096192	-13.748031311994712
8.032064128256513	-13.02536340582028
8.052104208416834	-11.526999440957237
8.072144288577155	-9.909292819439703
8.092184368737476	-8.459008576745012
8.112224448897795	-7.2367945877132485
8.132264529058116	-6.227745456373462
8.152304609218437	-5.399388439601295
8.172344689378757	-4.7192398495761925
8.192384769539078	-4.159281152735398
8.2124248496994	-3.6965119892453395
8.23246492985972	-3.312412220123277
8.252505010020041	-2.9921824247939144
8.27254509018036	-2.7240239308686713
8.292585170340681	-2.4985264553336615
8.312625250501002	-2.308169490388123
8.332665330661323	-2.1469246526401955
8.352705410821644	-2.009941933985049
8.372745490981965	-1.8933035076089955
8.392785571142284	-1.7938310035901401
8.412825651302606	-1.7089346940005266
8.432865731462925	-1.6364953481188615
8.452905811623246	-1.5747714880595178
8.472945891783567	-1.5223263791187867
8.492985971943888	-1.4779703639235309
8.513026052104207	-1.4407151473777724
8.53306613226453	-1.4097374131531015
8.553106212424849	-1.3843497489146266
8.573146292585172	-1.3639773157407529
8.59318637274549	-1.3481390487863354
8.613226452905812	-1.336432445948014
8.633266533066132	-1.3285212083466733
8.653306613226453	-1.324125155610369
8.673346693386774	-1.3230119614920823
8.693386773547095	-1.324990349856382
8.713426853707414	-1.3299044640134081
8.733466933867735	-1.3376291786865981
8.753507014028056	-1.3480661672931384
8.773547094188377	-1.3611405705050719
8.793587174348698	-1.3767981373672635
8.813627254509019	-1.3950027291752198
8.833667334669338	-1.4157340900638977
8.853707414829659	-1.4389857977323097
8.873747494989981	-1.4647633136100655
8.8937875751503	-1.4930820545851229
8.913827655310621	-1.5239654085797185
8.933867735470942	-1.5574426141573063
8.953907815631261	-1.5935464203524448
8.973947895791584	-1.6323104374946649
8.993987975951905	-1.6737660835594506
9.014028056112224	-1.7179390243846453
9.034068136272545	-1.7648450011694015
9.054108216432866	-1.8144849367641414
9.074148296593185	-1.8668392157739762
9.094188376753507	-1.9218610456807834
9.114228456913828	-1.9794688312661954
9.134268537074147	-2.0395375378606055
9.154308617234468	-2.1018890865746913
9.17434869739479	-2.1662819234763115
9.19438877755511	-2.2324000411527454
9.214428857715431	-2.2998419099192233
9.234468937875752	-2.3681099975318114
9.254509018036071	-2.43660181342367
9.274549098196392	-2.504603687111141
9.294589178356714	-2.5712887451024264
9.314629258517035	-2.635720731468942
9.334669338677354	-2.696865350125697
9.354709418837675	-2.753610605531265
9.374749498997996	-2.8047971010164074
9.394789579158317	-2.849258369873957
9.414829659318638	-2.8858700794407017
9.434869739478959	-2.9136054769214397
9.454909819639278	-2.931592964473528
9.474949899799599	-2.939170517756546
9.49498997995992	-2.9359311381155857
9.51503006012024	-2.921753915531899
9.535070140280562	-2.89681665268765
9.555110220440882	-2.861588185369916
9.575150300601202	-2.816801125393677
9.595190380761522	-2.763408219264534
9.615230460921845	-2.702527362061632
9.635270541082164	-2.6353812126726646
9.655310621242485	-2.5632372579243428
9.675350701402806	-2.487353240484163
9.695390781563125	-2.4089314189334683
9.715430861723448	-2.3290835240930963
9.735470941883769	-2.248806810596314
9.755511022044088	-2.1689704640737855
9.775551102204409	-2.090310883475686
9.79559118236473	-2.013433995042437
9.815631262525049	-1.9388226947477247
9.835671342685371	-1.8668476650525894
9.855711422845692	-1.7977800793658563
9.875751503006011	-1.731805021319315
9.895791583166332	-1.6690347554211293
9.915831663326653	-1.6095212608131713
9.935871743486974	-1.5532676667283576
9.955911823647295	-1.50023840390143
9.975951903807616	-1.4503680143912903
9.995991983967935	-1.4035686501182876
10.016032064128256	-1.359736346057379
10.036072144288578	-1.318756185302767
10.0561122244489	-1.2805064869680816
10.076152304609218	-1.2448621496781227
10.09619238476954	-1.2116972775506247
10.116232464929858	-1.1808872052438522
10.13627254509018	-1.1523100261136656
10.156312625250502	-1.1258477143091177
10.176352705410823	-1.1013869187174041
10.196392785571142	-1.0788194946286498
10.216432865731463	-1.0580428281333407
10.236472945891784	-1.0389599987077793
10.256513026052104	-1.0214798171852473
10.276553106212425	-1.0055167692797924
10.296593186372746	-0.9909908889147012
10.316633266533065	-0.9778275806809165
10.336673346693386	-0.9659574066815878
10.356713426853709	-0.9553158496825269
10.376753507014028	-0.9458430617706483
10.396793587174349	-0.9374836055213713
10.41683366733467	-0.9301861929026017
10.436873747494989	-0.9239034257216276
10.45691382765531	-0.9185915402867619
10.476953907815632	-0.9142101580546014
10.496993987975952	-0.910722043320804
10.517034068136272	-0.9080928684506875
10.537074148296593	-0.9062909867051219
10.557114228456912	-0.9052872123728313
10.577154308617235	-0.9050546076520387
10.597194388777556	-0.9055682755170116
10.617234468937875	-0.9068051576455709
10.637274549098196	-0.9087438363625842
10.657314629258517	-0.9113643394644357
10.677354709418838	-0.9146479467252668
10.697394789579159	-0.9185769968437517
10.71743486973948	-0.923134693567669
10.737474949899799	-0.9283049097316499
10.75751503006012	-0.9340719879623406
10.777555110220442	-0.9404205368467122
10.797595190380763	-0.9473352214263807
10.817635270541082	-0.9548005469783604
10.837675350701403	-0.9628006351755358
10.857715430861722	-0.9713189918951419
10.877755511022043	-0.9803382661679256
10.897795591182366	-0.9898400000425507
10.917835671342687	-0.9998043694878295
10.937875751503006	-1.010209916878774
10.957915831663327	-1.02103327611929
10.977955911823647	-1.0322488920529553
10.997995991983968	-1.043828736509377
11.01803607214429	-1.055742024130383
11.03807615230461	-1.067954932017288
11.05811623246493	-1.0804303282308663
11.07815631262525	-1.093127515246439
11.098196392785573	-1.1060019955945113
11.118236472945892	-1.1190052680692841
11.138276553106213	-1.1320846640167894
11.158316633266534	-1.1451832342606068
11.178356713426853	-1.1582396981113792
11.198396793587174	-1.1711884665461867
11.218436873747496	-1.183959751933474
11.238476953907815	-1.1964797765061905
11.258517034068136	-1.208671091035626
11.278557114228457	-1.2204530137204568
11.298597194388776	-1.2317421970854567
11.318637274549099	-1.2424533276162493
11.33867735470942	-1.252499958917572
11.358717434869739	-1.2617954744078665
11.37875751503006	-1.2702541700582295
11.39879759519038	-1.2777924416359605
11.418837675350701	-1.2843300545916865
11.438877755511022	-1.2897914684849867
11.458917835671343	-1.2941071820899317
11.478957915831662	-1.2972150605121486
11.498997995991983	-1.299061602237923
11.519038076152304	-1.2996031024385153
11.539078156312625	-1.298806669395296
11.559118236472946	-1.2966510537878913
11.579158316633267	-1.2931272558227558
11.599198396793586	-1.2882388826083802
11.619238476953907	-1.2820022374484816
11.63927855711423	-1.2744461332980552
11.65931863727455	-1.2656114338514808
11.67935871743487	-1.2555503368786871
11.69939879759519	-1.2443254247652842
11.719438877755511	-1.232008516082782
11.739478957915832	-1.2186793588841358
11.759519038076153	-1.204424210929806
11.779559118236474	-1.189334354044438
11.799599198396793	-1.1735045893276241
11.819639278557114	-1.1570317572204412
11.839679358717435	-1.1400133218321191
11.859719438877756	-1.1225460529247264
11.879759519038076	-1.1047248320484617
11.899799599198397	-1.0866416020228256
11.919839679358716	-1.0683844717302218
11.939879759519037	-1.0500369814146062
11.95991983967936	-1.0316775276517696
11.97995991983968	-1.013378942074317
12.0	-0.9952082138940456
