fre(GHz)	A1(dB)
2.0	-0.3616049792977935
2.020040080160321	-0.3619069813842384
2.0400801603206413	-0.3622119268640664
2.060120240480962	-0.36251985947195575
2.0801603206412826	-0.3628308223273558
2.1002004008016035	-0.363144857995202
2.120240480961924	-0.36346200854324306
2.1402805611222444	-0.3637823155961522
2.1603206412825653	-0.3641058203867742
2.1803607214428857	-0.36443256380461164
2.2004008016032066	-0.3647625864418548
2.220440881763527	-0.36509592863707363
2.2404809619238475	-0.36543263051679364
2.2605210420841684	-0.3657727320350698
2.2805611222444893	-0.36611627301124583
2.3006012024048093	-0.36646329316603693
2.32064128256513	-0.36681383215602115
2.340681362725451	-0.36716792960670147
2.360721442885772	-0.36752562514423104
2.380761523046092	-0.3678869584259207
2.400801603206413	-0.3682519691695712
2.4208416833667337	-0.3686206971818106
2.440881763527054	-0.3689931823854149
2.4609218436873745	-0.3693694648457849
2.4809619238476954	-0.3697495847965797
2.5010020040080163	-0.3701335826646068
2.5210420841683367	-0.37052149909405485
2.541082164328657	-0.3709133749700543
2.561122244488978	-0.3713092514417216
2.5811623246492985	-0.37170916994465514
2.6012024048096194	-0.3721131722229696
2.62124248496994	-0.37252130035093467
2.6412825651302603	-0.3729335967542094
2.661322645290581	-0.3733501042307597
2.681362725450902	-0.37377086597149584
2.7014028056112225	-0.3741959255806226
2.721442885771543	-0.3746253270958155
2.741482965931864	-0.37505911500817196
2.7615230460921847	-0.3754973342820397
2.7815631262525047	-0.37594003037470936
2.8016032064128256	-0.37638724925603134
2.8216432865731464	-0.3768390374279702
2.841683366733467	-0.37729544194410514
2.8617234468937873	-0.3777565104291677
2.881763527054108	-0.37822229109856176
2.901803607214429	-0.37869283277795285
2.9218436873747495	-0.3791681849229192
2.94188376753507	-0.379648397638696
2.961923847695391	-0.3801335217000606
2.9819639278557113	-0.38062360857132155
3.002004008016032	-0.38111871042651374
3.0220440881763526	-0.38161888016974505
3.042084168336673	-0.38212417145577704
3.062124248496994	-0.3826346387108337
3.082164328657315	-0.3831503371536444
3.1022044088176353	-0.38367132281678895
3.1222444889779557	-0.3841976525683044
3.1422845691382766	-0.38472938413365043
3.1623246492985975	-0.3852665761179705
3.1823647294589175	-0.3858092880287549
3.2024048096192383	-0.38635758029883777
3.2224448897795592	-0.38691151430984755
3.24248496993988	-0.3874711524160462
3.2625250501002	-0.388036557968637
3.282565130260521	-0.38860779534051515
3.302605210420842	-0.38918492995155696
3.3226452905811623	-0.38976802829437474
3.3426853707414828	-0.3903571579606513
3.3627254509018036	-0.3909523876680015
3.382765531062124	-0.3915537872874677
3.402805611222445	-0.3921614278715797
3.4228456913827654	-0.39277538168307646
3.442885771543086	-0.3933957222243105
3.4629258517034067	-0.394022524267307
3.4829659318637276	-0.39465586388456203
3.5030060120240485	-0.39529581848059847
3.5230460921843685	-0.39594246682427636
3.5430861723446894	-0.39659588908192644
3.5631262525050102	-0.3972561668513195
3.5831663326653307	-0.3979233831964869
3.603206412825651	-0.39859762268347954
3.623246492985972	-0.39927897141703106
3.643286573146293	-0.3999675170781994
3.6633266533066133	-0.4006633489630352
3.6833667334669338	-0.40136655802227117
3.7034068136272547	-0.40207723690210834
3.723446893787575	-0.40279547998611653
3.743486973947896	-0.40352138343832217
3.7635270541082164	-0.40425504524747996
3.783567134268537	-0.40499656527260014
3.8036072144288577	-0.40574604528980274
3.8236472945891786	-0.40650358904048767
3.843687374749499	-0.4072693022809172
3.8637274549098195	-0.40804329283324814
3.8837675350701404	-0.4088256706380592
3.9038076152304613	-0.4096165478084527
3.9238476953907813	-0.41041603868576015
3.943887775551102	-0.4112242598969289
3.963927855711423	-0.412041330413656
3.9839679358717435	-0.41286737161331855
4.004008016032064	-0.4137025073417907
4.024048096192384	-0.4145468639781927
4.044088176352705	-0.41540057050167134
4.064128256513026	-0.4162637585602735
4.084168336673346	-0.4171365625419988
4.104208416833667	-0.41801911964809435
4.124248496993988	-0.418911569968738
4.144288577154309	-0.4198140565611139
4.164328657314629	-0.42072672553006485
4.18436873747495	-0.421649726111345
4.2044088176352705	-0.4225832107576293
4.224448897795591	-0.42352733522736663
4.244488977955911	-0.42448225867657663
4.264529058116232	-0.4254481437537533
4.284569138276553	-0.4264251566979348
4.304609218436873	-0.4274134674401271
4.324649298597195	-0.4284132497081832
4.344689378757515	-0.4294246811352825
4.364729458917835	-0.4304479433721823
4.384769539078157	-0.43148322220335855
4.404809619238477	-0.4325307076672229
4.424849699398798	-0.4335905941805889
4.4448897795591185	-0.4346630806675422
4.4649298597194385	-0.43574837069292877
4.48496993987976	-0.4368466726006317
4.50501002004008	-0.4379581996568608
4.5250501002004	-0.4390831701986422
4.545090180360722	-0.44022180778779785
4.565130260521042	-0.4413743413705473
4.585170340681363	-0.44254100544308167
4.605210420841684	-0.4437220402233042
4.625250501002004	-0.44491769182905044
4.645290581162325	-0.44612821246305556
4.6653306613226455	-0.44735386060495214
4.6853707414829655	-0.4485949012106846
4.705410821643286	-0.44985160591958734
4.725450901803607	-0.45112425326953925
4.745490981963928	-0.45241312892054486
4.765531062124248	-0.45371852588713635
4.785571142284569	-0.45504074477999046
4.80561122244489	-0.45638009405720986
4.82565130260521	-0.4577368902857415
4.845691382765531	-0.4591114584133476
4.865731462925852	-0.46050413205171387
4.885771543086172	-0.4619152537711839
4.9058116232464934	-0.46334517540768944
4.925851703406813	-0.4647942583824697
4.945891783567134	-0.4662628740352356
4.965931863727455	-0.46775140397138193
4.985971943887775	-0.46926024042403425
5.006012024048097	-0.47078978663158133
5.026052104208417	-0.47234045723155155
5.046092184368737	-0.4739126786716105
5.066132264529059	-0.47550688963859805
5.086172344689379	-0.4771235415064934
5.106212424849699	-0.47876309880434076
5.1262525050100205	-0.4804260397051262
5.1462925851703405	-0.48211285653675995
5.166332665330661	-0.48382405631630737
5.186372745490982	-0.4855601613087032
5.206412825651302	-0.4873217096113339
5.226452905811623	-0.4891092557657871
5.246492985971944	-0.4909233713983593
5.266533066132264	-0.4927646458908353
5.286573146292586	-0.49463368708326655
5.306613226452906	-0.4965311220104987
5.326653306613227	-0.49845759767440656
5.3466933867735476	-0.5004137818538025
5.3667334669338675	-0.5024003639542375
5.386773547094188	-0.5044180558999618
5.406813627254509	-0.5064675930705175
5.426853707414829	-0.5085497352845705
5.44689378757515	-0.5106652678337977
5.466933867735471	-0.5128150025697954
5.486973947895792	-0.514999779047209
5.507014028056112	-0.5172204657264855
5.527054108216433	-0.5194779612399232
5.547094188376754	-0.5217731957248748
5.567134268537074	-0.5241071322283248
5.587174348697395	-0.5264807681872877
5.6072144288577155	-0.5288951369898596
5.6272545090180355	-0.5313513096220043
5.647294589178357	-0.5338503964056803
5.667334669338677	-0.5363935488341666
5.687374749498998	-0.5389819615109774
5.707414829659319	-0.5416168741992375
5.727454909819639	-0.544299573988828
5.74749498997996	-0.5470313975892835
5.767535070140281	-0.5498137337569408
5.787575150300601	-0.5526480258655484
5.8076152304609225	-0.5555357746302554
5.8276553106212425	-0.5584785409956781
5.8476953907815625	-0.5614779491996253
5.867735470941884	-0.5645356900249381
5.887775551102204	-0.5676535242529578
5.907815631262524	-0.5708332863332702
5.927855711422846	-0.5740768882854931
5.947895791583166	-0.5773863238502965
5.967935871743487	-0.5807636729082408
5.987975951903808	-0.5842111061865961
6.008016032064128	-0.5877308902760965
6.02805611222445	-0.5913253929814182
6.04809619238477	-0.5949970890313173
6.06813627254509	-0.5987485661766474
6.088176352705411	-0.6025825317069919
6.108216432865731	-0.6065018194194454
6.128256513026052	-0.6105093970761317
6.148296593186373	-0.6146083743904468
6.168336673346693	-0.6188020115857286
6.188376753507014	-0.6230937285741756
6.208416833667335	-0.627487114808451
6.228456913827655	-0.6319859398633833
6.248496993987976	-0.6365941648108021
6.268537074148297	-0.6413159544568326
6.2885771543086175	-0.6461556905177368
6.3086172344689375	-0.6511179858181693
6.328657314629258	-0.656207699604236
6.348697394789579	-0.661429954073215
6.368737474949899	-0.6667901522324688
6.388777555110221	-0.6722939972119408
6.408817635270541	-0.6779475131678637
6.428857715430861	-0.6837570679302034
6.448897795591183	-0.6897293975629875
6.468937875751503	-0.695871633025436
6.488977955911824	-0.7021913291427612
6.509018036072145	-0.7086964961192298
6.529058116232465	-0.7153956338527868
6.549098196392786	-0.7222977693405621
6.569138276553106	-0.7294124974987752
6.589178356713426	-0.7367500257589782
6.609218436873748	-0.7443212228463859
6.629258517034068	-0.7521376721955729
6.649298597194388	-0.7602117305154156
6.66933867735471	-0.768556592079278
6.68937875751503	-0.7771863593899879
6.709418837675351	-0.7861161209528882
6.729458917835672	-0.7953620369863381
6.749498997995992	-0.8049414340091023
6.7695390781563125	-0.8148729093706069
6.789579158316633	-0.8251764469356988
6.809619238476953	-0.8358735453034485
6.829659318637275	-0.846987360133641
6.849699398797595	-0.8585428623792658
6.869739478957916	-0.870567014483966
6.889779559118237	-0.8830889669064623
6.909819639278557	-0.8961402776868834
6.929859719438878	-0.90975515818225
6.949899799599199	-0.9239707485804378
6.969939879759519	-0.9388274273677756
6.98997995991984	-0.9543691595902292
7.01002004008016	-0.9706438895318269
7.030060120240481	-0.9877039843596116
7.050100200400801	-1.0056067363807855
7.070140280561122	-1.024414932859512
7.090180360721443	-1.044197503890845
7.110220440881763	-1.0650302606796453
7.130260521042084	-1.086996738787821
7.150300601202405	-1.110189163573324
7.170340681362725	-1.1347095582476447
7.190380761523047	-1.1606710188482892
7.210420841683367	-1.1881991851112792
7.2304609218436875	-1.2174339419289069
7.250501002004008	-1.2485313930295485
7.270541082164328	-1.2816661570241834
7.290581162324649	-1.3170340464125188
7.31062124248497	-1.3548552030192094
7.33066132264529	-1.3953777792617537
7.350701402805612	-1.4388822744356977
7.370741482965932	-1.4856866598694074
7.390781563126252	-1.5361524576813301
7.410821643286574	-1.5906919766988388
7.430861723446894	-1.6497769581325492
7.450901803607214	-1.7139489458187716
7.470941883767535	-1.7838317751851618
7.490981963927855	-1.8601466768117674
7.511022044088176	-1.943730621614073
7.531062124248497	-2.0355587048526385
7.551102204408817	-2.1367715885398058
7.571142284569139	-2.2487093146830857
7.591182364729459	-2.3729531910674755
7.611222444889779	-2.511377974218676
7.631262525050101	-2.6662172856850255
7.651302605210421	-2.840146180670293
7.671342685370742	-3.036386171036138
7.6913827655310625	-3.2588399941087953
7.7114228456913825	-3.512266356848956
7.731462925851703	-3.802509360168865
7.751503006012024	-4.136804369833027
7.771543086172345	-4.524193691675983
7.791583166332665	-4.976105272084518
7.811623246492986	-5.50718329581104
7.831663326653307	-6.136526815001472
7.851703406813627	-6.889626621274797
7.871743486973948	-7.801575276821432
7.891783567134269	-8.922777739165385
7.911823647294589	-10.3300377354752
7.93186372745491	-12.150626884503291
7.95190380761523	-14.623195157819568
7.97194388777555	-18.292245373281915
7.991983967935872	-24.937376105742857
8.012024048096192	-32.747819032560095
8.032064128256513	-21.484296876240144
8.052104208416834	-16.452767500627058
8.072144288577155	-13.350703242146185
8.092184368737476	-11.159910754673794
8.112224448897795	-9.507483590651507
8.132264529058116	-8.213739911158056
8.152304609218437	-7.176870567180739
8.172344689378757	-6.332656862519727
8.192384769539078	-5.637453907283413
8.2124248496994	-5.059993945476041
8.23246492985972	-4.577022800895468
8.252505010020041	-4.170778878042507
8.27254509018036	-3.8274324329458898
8.292585170340681	-3.536061435344891
8.312625250501002	-3.287946694933427
8.332665330661323	-3.076068028423498
8.352705410821644	-2.894733496308496
8.372745490981965	-2.7393005029989066
8.392785571142284	-2.605962506376099
8.412825651302606	-2.49158384581986
8.432865731462925	-2.3935705834511953
8.452905811623246	-2.309768716839799
8.472945891783567	-2.2383834418901296
8.492985971943888	-2.1779147546340036
8.513026052104207	-2.127105830026781
8.53306613226453	-2.0849014549413907
8.553106212424849	-2.0504144157693256
8.573146292585172	-2.0228982100239468
8.59318637274549	-2.0017248078267706
8.613226452905812	-1.9863664622394617
8.633266533066132	-1.9763807778718037
8.653306613226453	-1.9713984101802648
8.673346693386774	-1.9711128945445195
8.693386773547095	-1.9752722029063585
8.713426853707414	-1.9836717027424577
8.733466933867735	-1.9961482531551134
8.753507014028056	-2.012575219490824
8.773547094188377	-2.0328582238574953
8.793587174348698	-2.0569314762667106
8.813627254509019	-2.08475455143168
8.833667334669338	-2.1163094906661675
8.853707414829659	-2.1515981177167407
8.873747494989981	-2.1906394623531233
8.8937875751503	-2.233467186605084
8.913827655310621	-2.280126906024822
8.933867735470942	-2.330673292574477
8.953907815631261	-2.3851668370091854
8.973947895791584	-2.4436701373638217
8.993987975951905	-2.506243566981199
9.014028056112224	-2.572940161415244
9.034068136272545	-2.6437995500154896
9.054108216432866	-2.7188407473449216
9.074148296593185	-2.798053615181348
9.094188376753507	-2.881388812535768
9.114228456913828	-2.9687460755662025
9.134268537074147	-3.059960720362149
9.154308617234468	-3.1547883506459433
9.17434869739479	-3.2528878930904788
9.19438877755511	-3.353803290236189
9.214428857715431	-3.4569444693518294
9.234468937875752	-3.5615685850184695
9.254509018036071	-3.6667630029657836
9.274549098196392	-3.771432032114373
9.294589178356714	-3.874289968877213
9.314629258517035	-3.973863497446648
9.334669338677354	-4.068506746627382
9.354709418837675	-4.156432147214357
9.374749498997996	-4.235759455911467
9.394789579158317	-4.304583745143635
9.414829659318638	-4.361060764377963
9.434869739478959	-4.4035050454916425
9.454909819639278	-4.430492929709986
9.474949899799599	-4.440960075389006
9.49498997995992	-4.434281802219889
9.51503006012024	-4.410325494332815
9.535070140280562	-4.369467393939838
9.555110220440882	-4.312570982770593
9.575150300601202	-4.240929706705415
9.595190380761522	-4.156181742851736
9.615230460921845	-4.060207737782432
9.635270541082164	-3.9550234212374606
9.655310621242485	-3.8426778472963177
9.675350701402806	-3.725165371542629
9.695390781563125	-3.6043561858916267
9.715430861723448	-3.481947070820099
9.735470941883769	-3.359431499499629
9.755511022044088	-3.238086554734512
9.775551102204409	-3.118973273677692
9.79559118236473	-3.002946851998697
9.815631262525049	-2.890673404024639
9.835671342685371	-2.782650487282808
9.855711422845692	-2.6792292024281954
9.875751503006011	-2.580636268387223
9.895791583166332	-2.486994989068979
9.915831663326653	-2.3983444475806053
9.935871743486974	-2.3146565839890547
9.955911823647295	-2.2358510430661642
9.975951903807616	-2.161807834328637
9.995991983967935	-2.092377944317399
10.016032064128256	-2.0273920954439846
10.036072144288578	-1.96666786950655
10.0561122244489	-1.9100154171742578
10.076152304609218	-1.8572419649432397
10.09619238476954	-1.8081553137854975
10.116232464929858	-1.7625665027835236
10.13627254509018	-1.7202917890302916
10.156312625250502	-1.6811540735990498
10.176352705410823	-1.6449838834021449
10.196392785571142	-1.6116200007529584
10.216432865731463	-1.5809098166046915
10.236472945891784	-1.5527094697537678
10.256513026052104	-1.5268838226396069
10.276553106212425	-1.5033063145600154
10.296593186372746	-1.481858724940247
10.316633266533065	-1.4624308725285762
10.336673346693386	-1.444920270836434
10.356713426853709	-1.4292317556086682
10.376753507014028	-1.4152770964321921
10.396793587174349	-1.4029746016227267
10.41683366733467	-1.3922487231448797
10.436873747494989	-1.3830296664137645
10.45691382765531	-1.3752530083077548
10.476953907815632	-1.368859325517885
10.496993987975952	-1.3637938344080183
10.517034068136272	-1.3600060428114926
10.537074148296593	-1.357449413603025
10.557114228456912	-1.3560810394261584
10.577154308617235	-1.3558613275998765
10.597194388777556	-1.356753693951399
10.617234468937875	-1.3587242641096897
10.637274549098196	-1.3617415806319104
10.657314629258517	-1.365776314214397
10.677354709418838	-1.370800977152885
10.697394789579159	-1.3767896371599697
10.71743486973948	-1.3837176296184497
10.737474949899799	-1.3915612663473256
10.75751503006012	-1.4002975389842889
10.777555110220442	-1.4099038151479415
10.797595190380763	-1.4203575256400003
10.817635270541082	-1.4316358410890804
10.837675350701403	-1.4437153366318087
10.857715430861722	-1.4565716434842622
10.877755511022043	-1.4701790865883813
10.897795591182366	-1.484510307936969
10.917835671342687	-1.4995358757010866
10.937875751503006	-1.5152238799191062
10.957915831663327	-1.5315395162713743
10.977955911823647	-1.5484446603715052
10.997995991983968	-1.5658974360647453
11.01803607214429	-1.583851782442277
11.03807615230461	-1.6022570256579112
11.05811623246493	-1.6210574631624626
11.07815631262525	-1.640191969631957
11.098196392785573	-1.6595936356253882
11.118236472945892	-1.6791894518157593
11.138276553106213	-1.6989000534238863
11.158316633266534	-1.7186395411546669
11.178356713426853	-1.7383153963735358
11.198396793587174	-1.757828509324614
11.218436873747496	-1.777073339720138
11.238476953907815	-1.7959382288431145
11.258517034068136	-1.814305881216936
11.278557114228457	-1.8320540317256837
11.298597194388776	-1.8490563106613647
11.318637274549099	-1.8651833144160601
11.33867735470942	-1.8803038833843408
11.358717434869739	-1.8942865811428358
11.37875751503006	-1.907001360293721
11.39879759519038	-1.9183213907926346
11.418837675350701	-1.9281250165635906
11.438877755511022	-1.9362977962989383
11.458917835671343	-1.9427345752239022
11.478957915831662	-1.947341527008343
11.498997995991983	-1.9500380996739795
11.519038076152304	-1.9507587969441411
11.539078156312625	-1.9494547275384995
11.559118236472946	-1.946094859727594
11.579158316633267	-1.9406669270501176
11.599198396793586	-1.9331779431632323
11.619238476953907	-1.9236542987321734
11.63927855711423	-1.9121414301840203
11.65931863727455	-1.898703067963515
11.67935871743487	-1.8834200894484574
11.69939879759519	-1.8663890177358675
11.719438877755511	-1.847720221055584
11.739478957915832	-1.827535877793115
11.759519038076153	-1.8059677784930992
11.779559118236474	-1.783155038585933
11.799599198396793	-1.7592417940727585
11.819639278557114	-1.7343749474428702
11.839679358717435	-1.7087020233213692
11.859719438877756	-1.6823691835290175
11.879759519038076	-1.6555194402021542
11.899799599198397	-1.6282910941660527
11.919839679358716	-1.6008164145841626
11.939879759519037	-1.5732205655939604
11.95991983967936	-1.545620776606643
11.97995991983968	-1.518125745455372
12.0	-1.4908352577410615
